##TITLE= GC-MS info for pimento
##JCAMP-DX= 5.0
##DATA TYPE= LINK
##BLOCKS=8
##ORIGIN= Department of Chemistry, UWI, JAMAICA
##OWNER= public domain
##TITLE= GC of nutmeg oil
##JCAMP-DX= 5.01
##DATA TYPE= GAS CHROMATOGRAM
##DATA CLASS= XYDATA
##BLOCK ID=1
##ORIGIN= Dept of Chemistry, UWI, Mona, JAMAICA
##OWNER= Prof Y. Jackson and Dr Greg Simpson
##SPECTROMETER/DATA SYSTEM= Finnigan Ion Trap GC/MS
##$MODELS=
<Models>
<ModelData id="GCtrace" type="MOL">
</ModelData>
</Models>
##$PEAKS=
<Peaks type="GC/MS" xUnitsExpected="M/Z"  >
<PeakData id="1" title="a-pinene (~2690)" peakShape="sharp" model="2apin.1"  xMax="2740" xMin="2640"    />
<PeakData id="2" title="sabinene (~3160)" peakShape="sharp" model="3sab.1"  xMax="3180" xMin="3140"    />
<PeakData id="3" title="b-pinene (~3200)" peakShape="sharp" model="4bpin.1"  xMax="3220" xMin="3180"    />
<PeakData id="4" title="myrcene (~3408)" peakShape="sharp" model="5myrc.1"  xMax="3458" xMin="3358"    />
<PeakData id="5" title="R(+)limonene (~3857)" peakShape="sharp" model="6lim.1"  xMax="3907" xMin="3807"    />
<PeakData id="6" title="a-terpinene (~4193)" peakShape="sharp" model="7terp.1"  xMax="4243" xMin="4143"    />
<PeakData id="7" title="a-terpineol (~5561)" peakShape="sharp" model="8terpol.1"  xMax="5611" xMin="5511"    />
</Peaks>
##LONGDATE= 2006/08/25 20:43:12.0228 -0400 $$ export date from JSpecView
##XUNITS= ARBITRARY UNITS
##YUNITS= ARBITRARY UNITS
##XFACTOR= 9.6E-3
##YFACTOR= 5.0326E-3
##FIRSTX= 200
##FIRSTY= 176.9
##LASTX= 9800
##NPOINTS= 2501
##XYDATA= (X++(Y..Y))
20833C5151j888K58K59J98J99O36O0L37k38J152L58K19L97P95q0M18j00M77l378C5906
29229C5985j98l18J033n17m57l37O75K0n36L77M0q55O76J19k58j19P75r34M37C5389
37635C5667l9j20r9k38L18m0M0k0o16P95l18J19P9m57j59N77m38K79J39j00l57C5449
46833C5230j39N17o96N17J79m37j00L38%J59r34M37K0N17L58J073p56m96j391C4773
55229C5350n37K19k39o16J113l78k38P55j99m37k18N96k78L57l77K98J39o36C4952
63229C4734N56k19j19m0K98r53N56K58k0m37M37J00l38O0L37M0n9n37L78l98C5071
72031C4992r54R34J79J19j59j59o16N76j59L18l9m18O16l37o16N56k98k58J19C4515
80438C5151k78K58p75M0L18k0L77n9R9q74P75K18p55M97n56N16J99r9j39J78C4316
89229C5012o56O36q0k18L97l38n16j00R94j79n56N56J99k58o0r9j40M38n17K98C5012
98031C4614K59L57j271J053q94J192m57K78q0k18k78M57n17j79Q0O75p35n9R9C4277
106438C4873k39l18k0O76m97%j79%L98J99L9L18m17O0k79M18n97N17K0K0k0n37C5310
116031C4396N16o35M37J39K78j19n17M97o56l97P55m77O56j20O76K424J5440J6750F6328
124031E4723q047m869k146k106J59j311R9j073R54q55l57M96k58n76M77J79N9C5608
131635C5369k58j172J470Q0o16o0N56k78r9N9j9o36P9L58J99q0l97M57n57N37C5091
140438C4893R9p55Q74o76l9N56J19k18K78K0p95J133p95k39O76p15L37m37O16C4257
148833C4912k58j79m57R14r9j79j19m0M0l78P75j79K39l78L18%J39r9k78l98N57C4197
158031C5350k59k58j19l18L97m57O96N9k58m97O56R9q94M37m57Q15n76L97m57C4793
166438C4416%Q34p15N56k98%K58k38O0j312J411o95L17L58n76J19%J99M17r74C4833
175229C4972j59m0N17j212O95n9m0P9j19L18j99q74Q55J9K19l18K19n37K58l37C4932
184031C4912q74j59J172j19r54O36L38L98o56j59M57j59K38p9j39k19K39o96P95C4654
192438C4694L57j19j39r93K98J19K98K0L97J00q95Q55j192Q34m77M77j59m37J99C4137
200833C4296O76j073O76%M76r33Q94m37l78J59M77m97O96l78M0P9k18M57j99k0C4555
209635C4515N56%j59m37J79J59J19K0o56M57j9R9J99m38k18K98m97J79K98k98C4694
218438C4753o16m96J212q0p9P9M0j79l77L97M0K38k78j59K19L9l77%O16j59m0C4177
227635C4296N17K0r9%o0l38j79O16n16O95%j371O96O16K38l18o56M18j99k58O55C5051
236833C4873j79o0k58N56n16k0L97K78p35K19J39%o0L38L497J2141K4719K2394I0212
244833F7321k1182q604k563k58J59R9j39m0m17r9%k0P35p75Q54p75O36o16l9o0C4694
253635C3601J152n9k39j59L18l9J39k39N96p94J78l37L97L18o36P35n16l18M57C4555
262031C5151p55O75k38p95M17%J59N17r54O36o56K98j59L18K0k98K39n17K19m0C4535
270833C8032Q286J8877J9990J3511j3631k3645j5023p987l359p15%N76n96p55C4455
277229C4515J093M610K3069M9378R5398J29576J47816J57195J71700O6606k88062A56539
282438E0411j1425j987l98m77o95p9j173N37L77j053L58N76l78M77o95K18J40C4237
290031C4098k79P95j59K39M37m37M57N16N17J053Q94M332K623Q15l478m113k344C4893
297635C3740R34q15O16J19l97J99M37q15K39L9O16n16k19N57j40m57L18l37L97C4118
306031C4475%M57J19r9J99j39o36K58m37M37M0j19k98K18r9K38l37L57J59o36C3978
314833C4237K0L77m97Q0N36o75m0P95o36M77m97n9L97R9n16L37l57R9L38k98N96C4435
324031C5111n76P75J252Q723K3248N0193P9005P4395J00067J06744L35612J59103A033263
329635I14040n9611l57668j10956j99877K7699Q3734J25820J26018J40067m1847C51170
334438I6570n1027p531j053j570M77m77J19p15j39P95o76O0L58k19K0n37j19O76C4614
342438C4734m18k18N36q34J251k98l18r9J59p9J39l18O36k79p9o16J59P15q14C4078
350833C4614J99M153J5320L5886M3874M0854j7248o0346m1987j5022l855j112C4972
356438C4575m38P36j99O0j59N9n96K98O0k19m0l37J39M77k39M37k18J19m77N76C4594
365229C5350P55N16R34K265M471M431j252m013l815l816r14j152R54l18j99R9C4396
372438C4316K0L58j19m0k19m77L78L38j39K78K007M510P313M192o16n981o239C7019
380031C5489r74L18r74P16q0j79J987O796J5082K4520J6393n027k0765k1798j1366C6462
386833C8588Q247J5002J3591N544j4028j5817j0750m928j053N9j39l9J39j79%C4336
393635C4137M18p55L97K38M0J153N027J3691K6010K6428K0029j6532k8196j8440G4335
400031A11334M8325M6715j0352o7301n8618k6547o458j629o96O0j39K18k58k98C4038
406438C3959K18O0K78l38j99M0J00j40j59L78M57o95L18K38M17p95K79%k39%k18C4118
415635C4555k78J58k58n16M96J99p9j20l57K18j19K78k0K39k98L77n56%J39j79C4237
424438C3959P9L18P9N17k0m37r9j19k19L77l37%j59J79K38o16N17l78K78J99n17C3601
433635C4038K58p9q0J59j19R34K702J3453K7381L3224L1653J2856m1807m4709D6219
440031C7595k345m37o0J491K801M491Q55m0k921k881k285j232m77j59N56p9m18C4217
447635C4575k39J99M0q35N37j00m0j19N96l37J58l9J59o56K98j99L38k78r9j40C3859
456438C4455j78J19%n77%N57m97N17l78J59k0K59j99%l38K39j59K18j59O0M0m57C3978
466031C3939L18j00K19l78%L18K19R9k18j79k59L98k98L18o56K19N9K59k79J79C4694
474833C7138O776J0928J3274L875o339j4227j0114n544j99j689N56J133L001L477D4212
481229D4331l060k484k444q74o16m97m37Q54R94K583O537N087J431m034m212k584D0814
488438D4430L716J729k206o100l517l159k0q0n96j59K78n76K58O56m77m0l9n57C3899
496438C4018K39j79j99K98Q0L57k38o0j79K0K39k39n16P55k19j19m0k98M37J59C4018
505229C4058K78j99l9%P9M97p75M97L9k18M0o0Q15K642J272Q55r74r34j788l78C5091
514031C4773j39n76J828J311M094L517m97j888l815k205j550m77k19K98K39m77C4018
521229C3998M97O0j39j20k18J39k0k58o0J79j19N56p15L38j40N37l78k58L58L18C4336
530031C4197K58k78J610K285L716m18M0k027k802q74J729L934J4565L1714M1251A67607
536833A58507l6721n1723k6348o657k344k59%J39j39J79j39R9j59n56J053n36C4455
544031C4555l58J59o0p9l78M97K39o36j59P15l77P9M97O16p75J39o76N96K99M57C5508
552833C5171k59J00p55N9j59K19k39J00l98M18j20%k18P9K98Q0r9N9n9K58%O95C6164
562438C5648j59o76k0%m37r9J59j39J9J39k98j59O36o55K38%R9k18N36N77M888E2935
571635G5985L1395K6169k444l1494l4158j8678q803k285q54K18k38l58%O36K027D3357
578438F3824L5151M6477N3491N8419L2508j8301r2735r6789l3263r001k127j867C6065
584031C6184q54J39m77M77m37l78K39k39N56L18j59j9o56N16n16k39J20J59J311C9204
592438D5245P591M669p75n186n544m828k365k265P9k98n96m37R74L854M491L338D9259
599635D5046n643l159j292Q0l18k0M57O95n56O56l78m0k58n17l37N96n17j59L58C4495
608031C4694k39K79M37M17Q54L58n76m0q54p36k58l38M77K19l38j99J00M77j40C6144
616438C7317m18r33j79j39j99m37o0p9N16n76J39l77M76j19O0K98R93K0R74O36C7555
625229C6502o56j470L77n9m0L38M17O36O76M17L616K246J430k146k901k662J092C7794
632833C8330l58j609j351K98l38K78J411M232P829J0691K781k483r399p889m888C5389
639635C5151n37k18M57m0p15M17j99M97m97K0M17k18J99k39N17L9k38l78M38k0C4932
648438C5071k18%j19%k99J20m0K58n96J053o55k59M18N9k38J311J014K38o0j351C4833
657229C5270m0o55N9j59J39J20j40K0M18o0L78n77j19j79l97N56K59p16L58N9C4078
666031C4932m97l37K58L38J79j00m37L58n96N9k0K98l57k0L97J79l38K59q0p9C4932
674833C4734n17O36R9L58l78J59l18K19q35N37K0L18K18k98J79m0k38k19K78L78C4932
683635C4893L77K0l58j59N77p16j59m0n9M57R9j79m37K0M17k18K78J59R9k18N96C4952
692833C4674m37M17M0K18m17P35n76M0J59m18O0%O16l38k58O0N16o16l38L78%C5250
702031C4753N77l38j19j00K39l98M77l77R9J19n9M17o96Q0J133O95K444J172j78C8410
710438C7277j272q14k39k58k19j98N56k19O0J79M0m0N9j59j9j99P9k0J99k38J19C4515
719635C4316L38J99K38k0o36n9M77o36P95q0k38P55n17L38k98O95k38L58j79n17C5290
728438C5389l97J59Q74p15J311n96n17k78M97o16J39J39Q0N9K19m37N56p75j79C5230
736833C4575k19N96k38%k19M97o0%L18j39O0M37K58n96J59J19o55M37l78l58j59C4734
746031C5051k38J39k18L17n76M97p9J19P9m0J20N9o55O95j59K98N37o16Q74M0C6323
754833C5866J00r74l78N17%K19J78j19k78R9J59n16j59L18n17Q74q94N76o36N57C4535
763635C4575J98j79O0p9K38M37l18l9k99L78K0m37L18L9M57o55N36k38R9o0r9C4654
772833C5051K79l38o0K78o75M17l58K39J39m0J79j19k19N57m97K18M0k38l38K19C5667
781635C6721j99o36k38j79j173J153k78R73J073L120M372K265j491l397j888k782C6423
788833C6303m37m77K0m57Q15j033L97M0L57j59p35P75k38q94J371k19k0p9n37C5369
797229C5966J708J968K245P35q94k563k623p55J98r14N96j232M0P16k19K19m0C5290
804833C4515R14k98K0n37P36n17L38%n57O16o55m38R94m17K38m0L18n36J79j59C5071
813635C5946J649L775L915L020l38l934k385k980k98j888q74R93k18o96l57K58C6244
820833C5429l58L78m0O0j79k98M37l58j59k38J59O75J511L696Q007R717J1386G2666
828438F6705j0849j1306o816j252j172j79K38m57L38k98J59L97l17k59j98R9%C4893
836031C5091J59k58k19l9J9M97L98M37o76J252L97N37q35K19l18p55M0j113m0C4734
844438C4435L98o0k0M38o0l38%%%J59n56K98m57O16k0%l58R74p95J59J99l58J19C4435
854438C4257K58N96j19K78l77M17l78r9M57n37J20L97n56J79N9n36Q94j59j79C4734
862833C4893o0l78O56p9k19O0j20M57p94P15k98L18J39j99M17p94j00J99K78O16C6442
871635C7813j19K19j570o16p75Q0N9K0o76N17j59K19o76M37K78m17J59m37K78C4893
880031C4575L18j79Q34o16K19j00O0Q35j053K38m37N9J59M18m37N96n96N9n9k0C5091
888833C5290O76O75J490L78m57p55j053l18p55l18L38o16L57j19J79K18K19j79C4833
896833C5330%j20l77J79P9k58P75p95N17P9K0j19m17J58K59R9o56N57l18J99K78C5270
906031C5906m97N96Q35l18p55K98l98%n96Q15j59o56J99j39n76L38J9O96K0q0C5628
914833C5588L58j20n56L18j99k78p9M96l97M77l98j9K58m37O95K39l58j79N96C5151
923229C5270N96l38L38p55L78j00J99l18j79K39N96K18%K59R9r34J99J59j39k0C6880
932031C8767N683R558J1684J1823L576m808j3790j3373p750l735j113q94j79q0C5588
938438C5389L78m97K0m17Q74r34M77o76M77Q0j59O55J59k98j78L77j19j39j00C6323
946833C7078J630K444J371K98O75j092L17j092p36r34j907p55l98j9N36j371Q94C6760
954438C6105J39j20k78J034m0q74%R9K58k0k18o56M97k0m57r9J351L97P95j59C7476
963229C5966L17n16m17%j00K78L98R9j192O95n9k78M57n17J19K0J59j033J450C5171
971635C5350n97O56K98j79J352K642J789J311p35k484k186m77j569j20r9m0n9C4734
979229C5191K18m77N37K0q0l58M77P55o95n56N9J053J39Q0p95l38K59J39r14N56C4535
988031C4952j19o0j59N37j99J59k18k0L37Q0L18p95l18o0M58j99K78M77l58n9C5111
996833C4634k78N96J59J79r14P9N17k58m37J58K19j79M0J59M37m0l18%p9J19n36C5369
1006031C4614K59K38q94O95k18k59J99K19m77k19M77K78n9k0k19M37J40J78O0n76C5032
1014833C4972l97J39L57j39k18j99O56J39k19l77J19o36N56C4972
1020833C4694  $$checkpoint
##END= $$ end of GC trace
##TITLE= alpha-pinene
##JCAMP-DX= 5  $$home made
##DATA TYPE= MASS SPECTRUM
##DATA CLASS= PEAK TABLE
##ORIGIN= UWI, Mona, JAMAICA
##OWNER= public domain
##$URL= http://wwwchem.uwimona.edu.jm/spectra
##SPECTROMETER/DATA SYSTEM= Finnigan
##INSTRUMENTAL PARAMETERS= LOW RESOLUTION
##.SPECTROMETER TYPE= TRAP
##.INLET= GC
##.IONIZATION MODE= EI+
##$MODELS=
<Models>
<ModelData id="alpha-pinene" type="MOL">
alpha-pinene
RLRasMol  03109712213D
http://wwwchem.uwimona.edu.jm/spectra/
 26 27  0        0              1 V2000
    0.0640    0.1360   -1.6840 C   0  0  0  0  0  0  0  0  0  0  0  0
    1.2560    0.2960   -0.7120 C   0  0  0  0  0  0  0  0  0  0  0  0
    1.4960   -1.1000   -0.0840 C   0  0  0  0  0  0  0  0  0  0  0  0
    0.4520   -0.7080    0.9960 C   0  0  0  0  0  0  0  0  0  0  0  0
   -1.8840   -1.8120    1.1480 C   0  0  0  0  0  0  0  0  0  0  0  0
    0.7600    0.7840    0.6800 C   0  0  0  0  0  0  0  0  0  0  0  0
    0.6360   -1.0720    2.0360 H   0  0  0  0  0  0  0  0  0  0  0  0
    2.1520    0.8120   -1.1280 H   0  0  0  0  0  0  0  0  0  0  0  0
   -0.3040    1.1360   -2.0080 H   0  0  0  0  0  0  0  0  0  0  0  0
    0.3880   -0.4080   -2.5960 H   0  0  0  0  0  0  0  0  0  0  0  0
   -2.1800   -1.2360    2.0560 H   0  0  0  0  0  0  0  0  0  0  0  0
   -1.4760   -2.7920    1.4840 H   0  0  0  0  0  0  0  0  0  0  0  0
   -2.8080   -2.0120    0.5600 H   0  0  0  0  0  0  0  0  0  0  0  0
   -0.8640   -1.0520    0.3440 C   0  0  0  0  0  0  0  0  0  0  0  0
   -1.0400   -0.6320   -0.9880 C   0  0  0  0  0  0  0  0  0  0  0  0
   -1.9640   -0.8480   -1.5440 H   0  0  0  0  0  0  0  0  0  0  0  0
    1.9400    1.2920    1.5280 C   0  0  0  0  0  0  0  0  0  0  0  0
   -0.3840    1.8000    0.7720 C   0  0  0  0  0  0  0  0  0  0  0  0
    2.8120    0.6000    1.5240 H   0  0  0  0  0  0  0  0  0  0  0  0
    1.6440    1.4240    2.5920 H   0  0  0  0  0  0  0  0  0  0  0  0
    2.3080    2.2760    1.1640 H   0  0  0  0  0  0  0  0  0  0  0  0
   -0.7040    1.9440    1.8280 H   0  0  0  0  0  0  0  0  0  0  0  0
   -1.2920    1.5120    0.2040 H   0  0  0  0  0  0  0  0  0  0  0  0
   -0.0720    2.7920    0.3840 H   0  0  0  0  0  0  0  0  0  0  0  0
    2.5240   -1.2040    0.3280 H   0  0  0  0  0  0  0  0  0  0  0  0
    1.2400   -1.9760   -0.7200 H   0  0  0  0  0  0  0  0  0  0  0  0
 18 24  1  0
 18 23  1  0
 18 22  1  0
 17 21  1  0
 17 20  1  0
 17 19  1  0
 15 16  1  0
 14 15  2  0
  6 18  1  0
  6 17  1  0
  5 14  1  0
  5 13  1  0
  5 12  1  0
  5 11  1  0
  4 14  1  0
  4  7  1  0
  4  6  1  0
  3 26  1  0
  3 25  1  0
  3  4  1  0
  2  8  1  0
  2  6  1  0
  2  3  1  0
  1 15  1  0
  1 10  1  0
  1  9  1  0
  1  2  1  0
M  END
</ModelData>
<ModelData id="2apin" type="MOL" baseModel="alpha-pinene" >
alpha-pinene molecular ion
RLRasMol  03109712213D
http://wwwchem.uwimona.edu.jm/spectra/
 26 27  0        0              1 V2000
    0.0640    0.1360   -1.6840 C   0  0  0  0  0  0  0  0  0  0  0  0
    1.2560    0.2960   -0.7120 C   0  0  0  0  0  0  0  0  0  0  0  0
    1.4960   -1.1000   -0.0840 C   0  0  0  0  0  0  0  0  0  0  0  0
    0.4520   -0.7080    0.9960 C   0  0  0  0  0  0  0  0  0  0  0  0
   -1.8840   -1.8120    1.1480 C   0  0  0  0  0  0  0  0  0  0  0  0
    0.7600    0.7840    0.6800 C   0  0  0  0  0  0  0  0  0  0  0  0
    0.6360   -1.0720    2.0360 H   0  0  0  0  0  0  0  0  0  0  0  0
    2.1520    0.8120   -1.1280 H   0  0  0  0  0  0  0  0  0  0  0  0
   -0.3040    1.1360   -2.0080 H   0  0  0  0  0  0  0  0  0  0  0  0
    0.3880   -0.4080   -2.5960 H   0  0  0  0  0  0  0  0  0  0  0  0
   -2.1800   -1.2360    2.0560 H   0  0  0  0  0  0  0  0  0  0  0  0
   -1.4760   -2.7920    1.4840 H   0  0  0  0  0  0  0  0  0  0  0  0
   -2.8080   -2.0120    0.5600 H   0  0  0  0  0  0  0  0  0  0  0  0
   -0.8640   -1.0520    0.3440 C   0  0  0  0  0  0  0  0  0  0  0  0
   -1.0400   -0.6320   -0.9880 C   0  0  0  0  0  0  0  0  0  0  0  0
   -1.9640   -0.8480   -1.5440 H   0  0  0  0  0  0  0  0  0  0  0  0
    1.9400    1.2920    1.5280 C   0  0  0  0  0  0  0  0  0  0  0  0
   -0.3840    1.8000    0.7720 C   0  0  0  0  0  0  0  0  0  0  0  0
    2.8120    0.6000    1.5240 H   0  0  0  0  0  0  0  0  0  0  0  0
    1.6440    1.4240    2.5920 H   0  0  0  0  0  0  0  0  0  0  0  0
    2.3080    2.2760    1.1640 H   0  0  0  0  0  0  0  0  0  0  0  0
   -0.7040    1.9440    1.8280 H   0  0  0  0  0  0  0  0  0  0  0  0
   -1.2920    1.5120    0.2040 H   0  0  0  0  0  0  0  0  0  0  0  0
   -0.0720    2.7920    0.3840 H   0  0  0  0  0  0  0  0  0  0  0  0
    2.5240   -1.2040    0.3280 H   0  0  0  0  0  0  0  0  0  0  0  0
    1.2400   -1.9760   -0.7200 H   0  0  0  0  0  0  0  0  0  0  0  0
 18 24  1  0
 18 23  1  0
 18 22  1  0
 17 21  1  0
 17 20  1  0
 17 19  1  0
 15 16  1  0
 14 15  2  0
  6 18  1  0
  6 17  1  0
  5 14  1  0
  5 13  1  0
  5 12  1  0
  5 11  1  0
  4 14  1  0
  4  7  1  0
  4  6  1  0
  3 26  1  0
  3 25  1  0
  3  4  1  0
  2  8  1  0
  2  6  1  0
  2  3  1  0
  1 15  1  0
  1 10  1  0
  1  9  1  0
  1  2  1  0
M  END
</ModelData>
</Models>
##$PEAKS=
<Peaks type="MS" xUnitsExpected="M/Z"  >
<PeakData id="1" title="molecular ion (~136)" peakShape="sharp" model="2apin.1"  xMax="137" xMin="135"    />
</Peaks>
##XUNITS= m/z
##YUNITS= relative abundance
##XFACTOR= 1
##YFACTOR= 1
##FIRSTX= 27
##LASTX= 136
##NPOINTS= 16
##FIRSTY= 210
##MAXY= 1000
##MINY= 53
##PEAK TABLE= (XY..XY)
27,210 39,235 41,229 53,104 67,67 77,221 79,177 80,98 91,211 92,296 93,1000
94,92 105,74 107,53 121,133 136,81
##END= $$ end of alpha-pinene
##TITLE= sabinene
##JCAMP-DX= 5  $$home made
##DATA TYPE= MASS SPECTRUM
##DATA CLASS= PEAK TABLE
##ORIGIN= UWI, Mona, JAMAICA
##OWNER= public domain
##SPECTROMETER/DATA SYSTEM= Finnigan
##INSTRUMENTAL PARAMETERS= LOW RESOLUTION
##.SPECTROMETER TYPE= TRAP
##.INLET= GC
##.IONIZATION MODE= EI+
##$MODELS=
<Models>
<ModelData id="sabinene" type="MOL">
sabinene
RLRasMol  03109712393D
http://wwwchem.uwimona.edu.jm/spectra/
 26 27  0        0              1 V2000
    0.0800    0.3040   -2.2800 H   0  0  0  0  0  0  0  0  0  0  0  0
    1.7760   -0.1240   -1.6600 H   0  0  0  0  0  0  0  0  0  0  0  0
   -2.1600    0.9080   -1.5560 H   0  0  0  0  0  0  0  0  0  0  0  0
    0.7160    0.0600   -1.4200 C   0  0  0  0  0  0  0  0  0  0  0  0
   -1.8680   -1.4000   -0.8560 H   0  0  0  0  0  0  0  0  0  0  0  0
   -1.9880    0.7880   -0.4760 C   0  0  0  0  0  0  0  0  0  0  0  0
    1.1840   -2.4160   -0.4720 H   0  0  0  0  0  0  0  0  0  0  0  0
    0.0760   -0.5880   -0.1680 C   0  0  0  0  0  0  0  0  0  0  0  0
   -1.4760   -0.6440   -0.1520 C   0  0  0  0  0  0  0  0  0  0  0  0
    0.4960    0.9000   -0.1440 C   0  0  0  0  0  0  0  0  0  0  0  0
   -0.8120    1.6360   -0.0720 C   0  0  0  0  0  0  0  0  0  0  0  0
   -2.9120    1.0440    0.0640 H   0  0  0  0  0  0  0  0  0  0  0  0
   -0.9120    2.9120    0.3120 C   0  0  0  0  0  0  0  0  0  0  0  0
    2.9160   -0.7480    0.3400 H   0  0  0  0  0  0  0  0  0  0  0  0
   -1.8800    3.4120    0.3480 H   0  0  0  0  0  0  0  0  0  0  0  0
    0.9440   -1.7640    0.3880 C   0  0  0  0  0  0  0  0  0  0  0  0
    1.3480    1.1640    0.5000 H   0  0  0  0  0  0  0  0  0  0  0  0
   -0.0240    3.4800    0.5920 H   0  0  0  0  0  0  0  0  0  0  0  0
   -1.8120   -0.8880    0.8680 H   0  0  0  0  0  0  0  0  0  0  0  0
   -0.7360   -3.0800    0.9440 H   0  0  0  0  0  0  0  0  0  0  0  0
    2.2840   -1.3160    1.0400 C   0  0  0  0  0  0  0  0  0  0  0  0
    2.8640   -2.1960    1.3600 H   0  0  0  0  0  0  0  0  0  0  0  0
    0.1640   -2.6440    1.4040 C   0  0  0  0  0  0  0  0  0  0  0  0
    0.7920   -3.4800    1.7520 H   0  0  0  0  0  0  0  0  0  0  0  0
    2.0840   -0.6960    1.9280 H   0  0  0  0  0  0  0  0  0  0  0  0
   -0.1320   -2.0480    2.2800 H   0  0  0  0  0  0  0  0  0  0  0  0
 23 26  1  0
 23 24  1  0
 21 22  1  0
 21 25  1  0
 20 23  1  0
 16 21  1  0
 16 23  1  0
 14 21  1  0
 13 18  1  0
 13 15  1  0
 11 13  2  0
 10 11  1  0
 10 17  1  0
  9 19  1  0
  8 10  1  0
  8  9  1  0
  8 16  1  0
  7 16  1  0
  6 11  1  0
  6 12  1  0
  6  9  1  0
  5  9  1  0
  4  8  1  0
  4 10  1  0
  3  6  1  0
  2  4  1  0
  1  4  1  0
M  END
</ModelData>
<ModelData id="3sab" type="MOL" baseModel="sabinene" >
sabinene molecular ion
RLRasMol  03109712393D
http://wwwchem.uwimona.edu.jm/spectra/
 26 27  0        0              1 V2000
    0.0800    0.3040   -2.2800 H   0  0  0  0  0  0  0  0  0  0  0  0
    1.7760   -0.1240   -1.6600 H   0  0  0  0  0  0  0  0  0  0  0  0
   -2.1600    0.9080   -1.5560 H   0  0  0  0  0  0  0  0  0  0  0  0
    0.7160    0.0600   -1.4200 C   0  0  0  0  0  0  0  0  0  0  0  0
   -1.8680   -1.4000   -0.8560 H   0  0  0  0  0  0  0  0  0  0  0  0
   -1.9880    0.7880   -0.4760 C   0  0  0  0  0  0  0  0  0  0  0  0
    1.1840   -2.4160   -0.4720 H   0  0  0  0  0  0  0  0  0  0  0  0
    0.0760   -0.5880   -0.1680 C   0  0  0  0  0  0  0  0  0  0  0  0
   -1.4760   -0.6440   -0.1520 C   0  0  0  0  0  0  0  0  0  0  0  0
    0.4960    0.9000   -0.1440 C   0  0  0  0  0  0  0  0  0  0  0  0
   -0.8120    1.6360   -0.0720 C   0  0  0  0  0  0  0  0  0  0  0  0
   -2.9120    1.0440    0.0640 H   0  0  0  0  0  0  0  0  0  0  0  0
   -0.9120    2.9120    0.3120 C   0  0  0  0  0  0  0  0  0  0  0  0
    2.9160   -0.7480    0.3400 H   0  0  0  0  0  0  0  0  0  0  0  0
   -1.8800    3.4120    0.3480 H   0  0  0  0  0  0  0  0  0  0  0  0
    0.9440   -1.7640    0.3880 C   0  0  0  0  0  0  0  0  0  0  0  0
    1.3480    1.1640    0.5000 H   0  0  0  0  0  0  0  0  0  0  0  0
   -0.0240    3.4800    0.5920 H   0  0  0  0  0  0  0  0  0  0  0  0
   -1.8120   -0.8880    0.8680 H   0  0  0  0  0  0  0  0  0  0  0  0
   -0.7360   -3.0800    0.9440 H   0  0  0  0  0  0  0  0  0  0  0  0
    2.2840   -1.3160    1.0400 C   0  0  0  0  0  0  0  0  0  0  0  0
    2.8640   -2.1960    1.3600 H   0  0  0  0  0  0  0  0  0  0  0  0
    0.1640   -2.6440    1.4040 C   0  0  0  0  0  0  0  0  0  0  0  0
    0.7920   -3.4800    1.7520 H   0  0  0  0  0  0  0  0  0  0  0  0
    2.0840   -0.6960    1.9280 H   0  0  0  0  0  0  0  0  0  0  0  0
   -0.1320   -2.0480    2.2800 H   0  0  0  0  0  0  0  0  0  0  0  0
 23 26  1  0
 23 24  1  0
 21 22  1  0
 21 25  1  0
 20 23  1  0
 16 21  1  0
 16 23  1  0
 14 21  1  0
 13 18  1  0
 13 15  1  0
 11 13  2  0
 10 11  1  0
 10 17  1  0
  9 19  1  0
  8 10  1  0
  8  9  1  0
  8 16  1  0
  7 16  1  0
  6 11  1  0
  6 12  1  0
  6  9  1  0
  5  9  1  0
  4  8  1  0
  4 10  1  0
  3  6  1  0
  2  4  1  0
  1  4  1  0
M  END
</ModelData>
</Models>
##$PEAKS=
<Peaks type="MS" xUnitsExpected="M/Z"  >
<PeakData id="1" title="molecular ion (~136)" peakShape="sharp" model="3sab.1"  xMax="137" xMin="135"    />
</Peaks>
##XUNITS= m/z
##YUNITS= relative abundance
##XFACTOR= 1
##YFACTOR= 1
##FIRSTX= 41
##LASTX= 136
##NPOINTS= 16
##FIRSTY= 422
##MAXY= 1000
##MINY= 33
##PEAK TABLE= (XY..XY)
41,422 51,118 77,418 79,375 80,175 81,146 91,673 92,152 93,1000 94,121 95,40
107,40 121,74 134,33 135,86 136,186
##END= $$ end of sabinene
##TITLE= beta-pinene
##JCAMP-DX= 5  $$home made
##DATA TYPE= MASS SPECTRUM
##DATA CLASS= PEAK TABLE
##ORIGIN= UWI, Mona, JAMAICA
##OWNER= public domain
##SPECTROMETER/DATA SYSTEM= Finnigan
##INSTRUMENTAL PARAMETERS= LOW RESOLUTION
##.SPECTROMETER TYPE= TRAP
##.INLET= GC
##.IONIZATION MODE= EI+
##$MODELS=
<Models>
<ModelData id="beta-pinene" type="MOL">
beta-pinene
RLRasMol  01169716353D
http://wwwchem.uwimona.edu.jm/lectures/spices.html
 26 27  0        0              1 V2000
    0.8320   -1.1880   -1.5560 C   0  0  0  0  0  0  0  0  0  0  0  0
   -0.4680   -1.4880   -0.7760 C   0  0  0  0  0  0  0  0  0  0  0  0
    0.2920   -1.1960    0.5480 C   0  0  0  0  0  0  0  0  0  0  0  0
   -0.7880    1.0440   -1.1520 C   0  0  0  0  0  0  0  0  0  0  0  0
   -1.4840   -0.3560   -1.1040 C   0  0  0  0  0  0  0  0  0  0  0  0
   -0.6280    1.3400   -2.2040 H   0  0  0  0  0  0  0  0  0  0  0  0
    1.0080   -2.4600    1.1160 C   0  0  0  0  0  0  0  0  0  0  0  0
   -0.4640   -0.4840    1.7080 C   0  0  0  0  0  0  0  0  0  0  0  0
   -0.8760   -2.5080   -0.8760 H   0  0  0  0  0  0  0  0  0  0  0  0
    1.4760   -2.0680   -1.6920 H   0  0  0  0  0  0  0  0  0  0  0  0
    0.7320   -0.6680   -2.5200 H   0  0  0  0  0  0  0  0  0  0  0  0
   -2.2920   -0.3840   -0.3600 H   0  0  0  0  0  0  0  0  0  0  0  0
   -1.9480   -0.5720   -2.0840 H   0  0  0  0  0  0  0  0  0  0  0  0
    1.7160   -2.1600    1.9040 H   0  0  0  0  0  0  0  0  0  0  0  0
    1.5680   -3.0360    0.3680 H   0  0  0  0  0  0  0  0  0  0  0  0
    0.2560   -3.1320    1.5560 H   0  0  0  0  0  0  0  0  0  0  0  0
   -0.9520    0.4560    1.4440 H   0  0  0  0  0  0  0  0  0  0  0  0
    0.2400   -0.2600    2.5200 H   0  0  0  0  0  0  0  0  0  0  0  0
   -1.2400   -1.1640    2.0960 H   0  0  0  0  0  0  0  0  0  0  0  0
    1.2240   -0.3200   -0.3320 C   0  0  0  0  0  0  0  0  0  0  0  0
    0.5840    1.0360   -0.5080 C   0  0  0  0  0  0  0  0  0  0  0  0
    1.1920    2.1640   -0.1200 C   0  0  0  0  0  0  0  0  0  0  0  0
    0.7120    3.1320   -0.2600 H   0  0  0  0  0  0  0  0  0  0  0  0
    2.1760    2.1440    0.3480 H   0  0  0  0  0  0  0  0  0  0  0  0
    2.2920   -0.3240   -0.0600 H   0  0  0  0  0  0  0  0  0  0  0  0
   -1.4400    1.8080   -0.7000 H   0  0  0  0  0  0  0  0  0  0  0  0
 22 24  1  0
 22 23  1  0
 21 22  2  0
 20 25  1  0
 20 21  1  0
  8 19  1  0
  8 18  1  0
  8 17  1  0
  7 16  1  0
  7 15  1  0
  7 14  1  0
  5 13  1  0
  5 12  1  0
  4 26  1  0
  4 21  1  0
  4  6  1  0
  4  5  1  0
  3 20  1  0
  3  8  1  0
  3  7  1  0
  2  5  1  0
  2  9  1  0
  2  3  1  0
  1 20  1  0
  1 11  1  0
  1 10  1  0
  1  2  1  0
M  END
</ModelData>
<ModelData id="4bpin" type="MOL" baseModel="beta-pinene" >
beta-pinene molecular ion
RLRasMol  01169716353D
http://wwwchem.uwimona.edu.jm/lectures/spices.html
 26 27  0        0              1 V2000
    0.8320   -1.1880   -1.5560 C   0  0  0  0  0  0  0  0  0  0  0  0
   -0.4680   -1.4880   -0.7760 C   0  0  0  0  0  0  0  0  0  0  0  0
    0.2920   -1.1960    0.5480 C   0  0  0  0  0  0  0  0  0  0  0  0
   -0.7880    1.0440   -1.1520 C   0  0  0  0  0  0  0  0  0  0  0  0
   -1.4840   -0.3560   -1.1040 C   0  0  0  0  0  0  0  0  0  0  0  0
   -0.6280    1.3400   -2.2040 H   0  0  0  0  0  0  0  0  0  0  0  0
    1.0080   -2.4600    1.1160 C   0  0  0  0  0  0  0  0  0  0  0  0
   -0.4640   -0.4840    1.7080 C   0  0  0  0  0  0  0  0  0  0  0  0
   -0.8760   -2.5080   -0.8760 H   0  0  0  0  0  0  0  0  0  0  0  0
    1.4760   -2.0680   -1.6920 H   0  0  0  0  0  0  0  0  0  0  0  0
    0.7320   -0.6680   -2.5200 H   0  0  0  0  0  0  0  0  0  0  0  0
   -2.2920   -0.3840   -0.3600 H   0  0  0  0  0  0  0  0  0  0  0  0
   -1.9480   -0.5720   -2.0840 H   0  0  0  0  0  0  0  0  0  0  0  0
    1.7160   -2.1600    1.9040 H   0  0  0  0  0  0  0  0  0  0  0  0
    1.5680   -3.0360    0.3680 H   0  0  0  0  0  0  0  0  0  0  0  0
    0.2560   -3.1320    1.5560 H   0  0  0  0  0  0  0  0  0  0  0  0
   -0.9520    0.4560    1.4440 H   0  0  0  0  0  0  0  0  0  0  0  0
    0.2400   -0.2600    2.5200 H   0  0  0  0  0  0  0  0  0  0  0  0
   -1.2400   -1.1640    2.0960 H   0  0  0  0  0  0  0  0  0  0  0  0
    1.2240   -0.3200   -0.3320 C   0  0  0  0  0  0  0  0  0  0  0  0
    0.5840    1.0360   -0.5080 C   0  0  0  0  0  0  0  0  0  0  0  0
    1.1920    2.1640   -0.1200 C   0  0  0  0  0  0  0  0  0  0  0  0
    0.7120    3.1320   -0.2600 H   0  0  0  0  0  0  0  0  0  0  0  0
    2.1760    2.1440    0.3480 H   0  0  0  0  0  0  0  0  0  0  0  0
    2.2920   -0.3240   -0.0600 H   0  0  0  0  0  0  0  0  0  0  0  0
   -1.4400    1.8080   -0.7000 H   0  0  0  0  0  0  0  0  0  0  0  0
 22 24  1  0
 22 23  1  0
 21 22  2  0
 20 25  1  0
 20 21  1  0
  8 19  1  0
  8 18  1  0
  8 17  1  0
  7 16  1  0
  7 15  1  0
  7 14  1  0
  5 13  1  0
  5 12  1  0
  4 26  1  0
  4 21  1  0
  4  6  1  0
  4  5  1  0
  3 20  1  0
  3  8  1  0
  3  7  1  0
  2  5  1  0
  2  9  1  0
  2  3  1  0
  1 20  1  0
  1 11  1  0
  1 10  1  0
  1  2  1  0
M  END
</ModelData>
</Models>
##$PEAKS=
<Peaks type="MS" xUnitsExpected="M/Z"  >
<PeakData id="1" title="molecular ion (~136)" peakShape="sharp" model="4bpin.1"  xMax="137" xMin="135"    />
</Peaks>
##XUNITS= m/z
##YUNITS= relative abundance
##XFACTOR= 1
##YFACTOR= 1
##FIRSTX= 0
##LASTX= 136
##NPOINTS= 18
##FIRSTY= 0
##PEAK TABLE= (XY..XY)
0,0 27,314 39,331 41,636 53,140 55,84 67,99 69,466 77,182 79,200
80,103 91,133 92,78 93,1000 94,134 107,36 121,85 136,69
##END= $$ end of beta-pinene
##TITLE= beta-myrcene
##JCAMP-DX= 5 $$home made
##DATA TYPE= MASS SPECTRUM
##DATA CLASS= PEAK TABLE
##ORIGIN= UWI, Mona, JAMAICA
##OWNER= public domain
##$URL=http://wwwchem.uwimona.edu.jm/lectures/spices.html
##SPECTROMETER/DATA SYSTEM= Finnigan
##INSTRUMENTAL PARAMETERS= LOW RESOLUTION
##.SPECTROMETER TYPE= TRAP
##.INLET= GC
##.IONIZATION MODE= EI+
##$MODELS=
<Models>
<ModelData id="myrcene" type="MOL">
myrcene
RLRasMol  03109709143D
http://wwwchem.uwimona.edu.jm/spectra
 26 25  0        0              1 V2000
   -1.7360    0.2480    0.4520 C   0  0  0  0  0  0  0  0  0  0  0  0
   -1.2600    1.2240   -0.6400 C   0  0  0  0  0  0  0  0  0  0  0  0
   -1.0560    0.6640   -1.5800 H   0  0  0  0  0  0  0  0  0  0  0  0
   -2.1000    1.9120   -0.8960 H   0  0  0  0  0  0  0  0  0  0  0  0
   -2.6600   -0.2600    0.1080 H   0  0  0  0  0  0  0  0  0  0  0  0
   -2.0320    0.8200    1.3600 H   0  0  0  0  0  0  0  0  0  0  0  0
   -1.4560   -2.6560   -0.6560 C   0  0  0  0  0  0  0  0  0  0  0  0
   -2.2240   -1.9600   -1.0600 H   0  0  0  0  0  0  0  0  0  0  0  0
   -1.9920   -3.5280   -0.2240 H   0  0  0  0  0  0  0  0  0  0  0  0
   -0.8680   -3.0200   -1.5280 H   0  0  0  0  0  0  0  0  0  0  0  0
   -0.0560    2.0480   -0.2200 C   0  0  0  0  0  0  0  0  0  0  0  0
   -0.3000    3.1640    0.4800 C   0  0  0  0  0  0  0  0  0  0  0  0
    0.5040    3.8280    0.8240 H   0  0  0  0  0  0  0  0  0  0  0  0
   -1.3320    3.4520    0.7400 H   0  0  0  0  0  0  0  0  0  0  0  0
   -0.6840   -0.7600    0.8280 C   0  0  0  0  0  0  0  0  0  0  0  0
    0.0640   -0.3960    1.5480 H   0  0  0  0  0  0  0  0  0  0  0  0
   -0.5560   -2.0120    0.3640 C   0  0  0  0  0  0  0  0  0  0  0  0
    0.5640   -2.8960    0.8440 C   0  0  0  0  0  0  0  0  0  0  0  0
    1.2240   -3.1800   -0.0040 H   0  0  0  0  0  0  0  0  0  0  0  0
    0.1600   -3.8280    1.2920 H   0  0  0  0  0  0  0  0  0  0  0  0
    1.2040   -2.4040    1.6120 H   0  0  0  0  0  0  0  0  0  0  0  0
    1.2080    1.7200   -0.5240 C   0  0  0  0  0  0  0  0  0  0  0  0
    2.0160    2.3880   -0.1800 H   0  0  0  0  0  0  0  0  0  0  0  0
    1.5920    0.6360   -1.2160 C   0  0  0  0  0  0  0  0  0  0  0  0
    0.8760   -0.0960   -1.6120 H   0  0  0  0  0  0  0  0  0  0  0  0
    2.6600    0.4520   -1.4160 H   0  0  0  0  0  0  0  0  0  0  0  0
 24 26  1  0
 24 25  1  0
 22 24  2  0
 22 23  1  0
 18 21  1  0
 18 20  1  0
 18 19  1  0
 17 18  1  0
 15 17  2  0
 15 16  1  0
 12 14  1  0
 12 13  1  0
 11 22  1  0
 11 12  2  0
  7 17  1  0
  7 10  1  0
  7  9  1  0
  7  8  1  0
  2 11  1  0
  2  4  1  0
  2  3  1  0
  1 15  1  0
  1  6  1  0
  1  5  1  0
  1  2  1  0
M  END
</ModelData>
<ModelData id="5myrc" type="MOL" baseModel="myrcene" >
myrcene
RLRasMol  03109709143D
http://wwwchem.uwimona.edu.jm/spectra/
 26 25  0        0              1 V2000
   -1.7360    0.2480    0.4520 C   0  0  0  0  0  0  0  0  0  0  0  0
   -1.2600    1.2240   -0.6400 C   0  0  0  0  0  0  0  0  0  0  0  0
   -1.0560    0.6640   -1.5800 H   0  0  0  0  0  0  0  0  0  0  0  0
   -2.1000    1.9120   -0.8960 H   0  0  0  0  0  0  0  0  0  0  0  0
   -2.6600   -0.2600    0.1080 H   0  0  0  0  0  0  0  0  0  0  0  0
   -2.0320    0.8200    1.3600 H   0  0  0  0  0  0  0  0  0  0  0  0
   -1.4560   -2.6560   -0.6560 C   0  0  0  0  0  0  0  0  0  0  0  0
   -2.2240   -1.9600   -1.0600 H   0  0  0  0  0  0  0  0  0  0  0  0
   -1.9920   -3.5280   -0.2240 H   0  0  0  0  0  0  0  0  0  0  0  0
   -0.8680   -3.0200   -1.5280 H   0  0  0  0  0  0  0  0  0  0  0  0
   -0.0560    2.0480   -0.2200 C   0  0  0  0  0  0  0  0  0  0  0  0
   -0.3000    3.1640    0.4800 C   0  0  0  0  0  0  0  0  0  0  0  0
    0.5040    3.8280    0.8240 H   0  0  0  0  0  0  0  0  0  0  0  0
   -1.3320    3.4520    0.7400 H   0  0  0  0  0  0  0  0  0  0  0  0
   -0.6840   -0.7600    0.8280 C   0  0  0  0  0  0  0  0  0  0  0  0
    0.0640   -0.3960    1.5480 H   0  0  0  0  0  0  0  0  0  0  0  0
   -0.5560   -2.0120    0.3640 C   0  0  0  0  0  0  0  0  0  0  0  0
    0.5640   -2.8960    0.8440 C   0  0  0  0  0  0  0  0  0  0  0  0
    1.2240   -3.1800   -0.0040 H   0  0  0  0  0  0  0  0  0  0  0  0
    0.1600   -3.8280    1.2920 H   0  0  0  0  0  0  0  0  0  0  0  0
    1.2040   -2.4040    1.6120 H   0  0  0  0  0  0  0  0  0  0  0  0
    1.2080    1.7200   -0.5240 C   0  0  0  0  0  0  0  0  0  0  0  0
    2.0160    2.3880   -0.1800 H   0  0  0  0  0  0  0  0  0  0  0  0
    1.5920    0.6360   -1.2160 C   0  0  0  0  0  0  0  0  0  0  0  0
    0.8760   -0.0960   -1.6120 H   0  0  0  0  0  0  0  0  0  0  0  0
    2.6600    0.4520   -1.4160 H   0  0  0  0  0  0  0  0  0  0  0  0
 24 26  1  0
 24 25  1  0
 22 24  2  0
 22 23  1  0
 18 21  1  0
 18 20  1  0
 18 19  1  0
 17 18  1  0
 15 17  2  0
 15 16  1  0
 12 14  1  0
 12 13  1  0
 11 22  1  0
 11 12  2  0
  7 17  1  0
  7 10  1  0
  7  9  1  0
  7  8  1  0
  2 11  1  0
  2  4  1  0
  2  3  1  0
  1 15  1  0
  1  6  1  0
  1  5  1  0
  1  2  1  0
M  END
</ModelData>
</Models>
##$PEAKS=
<Peaks type="MS" xUnitsExpected="M/Z"  >
<PeakData id="1" title="molecular ion (~136)" peakShape="sharp" model="5myrc.1"  xMax="137" xMin="135"    />
</Peaks>
##XUNITS= m/z
##YUNITS= relative abundance
##XFACTOR= 1
##YFACTOR= 1
##FIRSTX= 0
##LASTX= 136
##NPOINTS= 17
##FIRSTY= 0
##MAXY= 1000
##MINY= 0
##PEAK TABLE= (XY..XY)
0,0 27,316 39,337 41,1000 53,169 67,109 69,868 70,59 77,158 79,160 80,99
91,150 92,109 93,865 94,140 121,39 136,29
##END=  $$ end of beta-myrcene
##TITLE= limonene
##JCAMP-DX= 5  $$home made
##DATA TYPE= MASS SPECTRUM
##DATA CLASS= PEAK TABLE
##ORIGIN= UWI, Mona, JAMAICA
##OWNER= public domain
##$URL= http://wwwchem.uwimona.edu.jm/spectra
##SPECTROMETER/DATA SYSTEM= Finnigan
##INSTRUMENTAL PARAMETERS= LOW RESOLUTION
##.SPECTROMETER TYPE= TRAP
##.INLET= GC
##.IONIZATION MODE= EI+
##$MODELS=
<Models>
<ModelData id="limonene" type="MOL">
R+limonene
RLArgusLab
http://wwwchem.uwimona.edu.jm/
 26 26  0  0  0  0  0  0  0  0  0 V2000
    1.2327   -0.4308    1.0634 C   0  0  0  0  0  0  0  0  0  0  0  0
   -0.2036   -0.9212    1.2798 C   0  0  0  0  0  0  0  0  0  0  0  0
   -1.1803    0.2613    1.2752 C   0  0  0  0  0  0  0  0  0  0  0  0
   -1.0776    1.1056    0.0124 C   0  0  0  0  0  0  0  0  0  0  0  0
    0.5288    2.5664   -1.2831 C   0  0  0  0  0  0  0  0  0  0  0  0
   -0.0501   -2.0429   -1.0508 C   0  0  0  0  0  0  0  0  0  0  0  0
    0.3376    1.4227   -0.3495 C   0  0  0  0  0  0  0  0  0  0  0  0
    1.3697    0.7116    0.1197 C   0  0  0  0  0  0  0  0  0  0  0  0
   -0.6509   -1.9894    0.3107 C   0  0  0  0  0  0  0  0  0  0  0  0
   -1.5809   -2.8731    0.6806 C   0  0  0  0  0  0  0  0  0  0  0  0
   -1.6514    2.0447    0.1419 H   0  0  0  0  0  0  0  0  0  0  0  0
   -1.5448    0.5785   -0.8449 H   0  0  0  0  0  0  0  0  0  0  0  0
   -0.9766    0.8942    2.1612 H   0  0  0  0  0  0  0  0  0  0  0  0
   -2.2166   -0.1108    1.3946 H   0  0  0  0  0  0  0  0  0  0  0  0
   -0.2388   -1.3814    2.2997 H   0  0  0  0  0  0  0  0  0  0  0  0
    1.6577   -0.1094    2.0364 H   0  0  0  0  0  0  0  0  0  0  0  0
    1.8698   -1.2688    0.7160 H   0  0  0  0  0  0  0  0  0  0  0  0
    0.1802    3.5020   -0.8247 H   0  0  0  0  0  0  0  0  0  0  0  0
    1.5801    2.7061   -1.5669 H   0  0  0  0  0  0  0  0  0  0  0  0
   -0.0481    2.4140   -2.2053 H   0  0  0  0  0  0  0  0  0  0  0  0
    0.9445   -2.5098   -1.0145 H   0  0  0  0  0  0  0  0  0  0  0  0
   -0.6631   -2.6262   -1.7504 H   0  0  0  0  0  0  0  0  0  0  0  0
    0.0738   -1.0336   -1.4697 H   0  0  0  0  0  0  0  0  0  0  0  0
   -1.9498   -3.6524    0.0197 H   0  0  0  0  0  0  0  0  0  0  0  0
   -2.0355   -2.8735    1.6676 H   0  0  0  0  0  0  0  0  0  0  0  0
    2.3972    0.9642   -0.1710 H   0  0  0  0  0  0  0  0  0  0  0  0
  1  2  1  0  0  0  0
  1  8  1  0  0  0  0
  1 17  1  0  0  0  0
  1 16  1  0  0  0  0
  2  9  1  0  0  0  0
  2 15  1  0  0  0  0
  2  3  1  0  0  0  0
  3 14  1  0  0  0  0
  3 13  1  0  0  0  0
  3  4  1  0  0  0  0
  4  7  1  0  0  0  0
  4 12  1  0  0  0  0
  4 11  1  0  0  0  0
  5  7  1  0  0  0  0
  5 20  1  0  0  0  0
  5 19  1  0  0  0  0
  5 18  1  0  0  0  0
  6  9  1  0  0  0  0
  6 23  1  0  0  0  0
  6 22  1  0  0  0  0
  6 21  1  0  0  0  0
  7  8  2  0  0  0  0
  8 26  1  0  0  0  0
  9 10  2  0  0  0  0
 10 25  1  0  0  0  0
 10 24  1  0  0  0  0
M  END
</ModelData>
<ModelData id="6lim" type="MOL" baseModel="limonene" >
R+limonene
RLArgusLab
http://wwwchem.uwimona.edu.jm/
 26 26  0  0  0  0  0  0  0  0  0 V2000
    1.2327   -0.4308    1.0634 C   0  0  0  0  0  0  0  0  0  0  0  0
   -0.2036   -0.9212    1.2798 C   0  0  0  0  0  0  0  0  0  0  0  0
   -1.1803    0.2613    1.2752 C   0  0  0  0  0  0  0  0  0  0  0  0
   -1.0776    1.1056    0.0124 C   0  0  0  0  0  0  0  0  0  0  0  0
    0.5288    2.5664   -1.2831 C   0  0  0  0  0  0  0  0  0  0  0  0
   -0.0501   -2.0429   -1.0508 C   0  0  0  0  0  0  0  0  0  0  0  0
    0.3376    1.4227   -0.3495 C   0  0  0  0  0  0  0  0  0  0  0  0
    1.3697    0.7116    0.1197 C   0  0  0  0  0  0  0  0  0  0  0  0
   -0.6509   -1.9894    0.3107 C   0  0  0  0  0  0  0  0  0  0  0  0
   -1.5809   -2.8731    0.6806 C   0  0  0  0  0  0  0  0  0  0  0  0
   -1.6514    2.0447    0.1419 H   0  0  0  0  0  0  0  0  0  0  0  0
   -1.5448    0.5785   -0.8449 H   0  0  0  0  0  0  0  0  0  0  0  0
   -0.9766    0.8942    2.1612 H   0  0  0  0  0  0  0  0  0  0  0  0
   -2.2166   -0.1108    1.3946 H   0  0  0  0  0  0  0  0  0  0  0  0
   -0.2388   -1.3814    2.2997 H   0  0  0  0  0  0  0  0  0  0  0  0
    1.6577   -0.1094    2.0364 H   0  0  0  0  0  0  0  0  0  0  0  0
    1.8698   -1.2688    0.7160 H   0  0  0  0  0  0  0  0  0  0  0  0
    0.1802    3.5020   -0.8247 H   0  0  0  0  0  0  0  0  0  0  0  0
    1.5801    2.7061   -1.5669 H   0  0  0  0  0  0  0  0  0  0  0  0
   -0.0481    2.4140   -2.2053 H   0  0  0  0  0  0  0  0  0  0  0  0
    0.9445   -2.5098   -1.0145 H   0  0  0  0  0  0  0  0  0  0  0  0
   -0.6631   -2.6262   -1.7504 H   0  0  0  0  0  0  0  0  0  0  0  0
    0.0738   -1.0336   -1.4697 H   0  0  0  0  0  0  0  0  0  0  0  0
   -1.9498   -3.6524    0.0197 H   0  0  0  0  0  0  0  0  0  0  0  0
   -2.0355   -2.8735    1.6676 H   0  0  0  0  0  0  0  0  0  0  0  0
    2.3972    0.9642   -0.1710 H   0  0  0  0  0  0  0  0  0  0  0  0
  1  2  1  0  0  0  0
  1  8  1  0  0  0  0
  1 17  1  0  0  0  0
  1 16  1  0  0  0  0
  2  9  1  0  0  0  0
  2 15  1  0  0  0  0
  2  3  1  0  0  0  0
  3 14  1  0  0  0  0
  3 13  1  0  0  0  0
  3  4  1  0  0  0  0
  4  7  1  0  0  0  0
  4 12  1  0  0  0  0
  4 11  1  0  0  0  0
  5  7  1  0  0  0  0
  5 20  1  0  0  0  0
  5 19  1  0  0  0  0
  5 18  1  0  0  0  0
  6  9  1  0  0  0  0
  6 23  1  0  0  0  0
  6 22  1  0  0  0  0
  6 21  1  0  0  0  0
  7  8  2  0  0  0  0
  8 26  1  0  0  0  0
  9 10  2  0  0  0  0
 10 25  1  0  0  0  0
 10 24  1  0  0  0  0
M  END
</ModelData>
</Models>
##$PEAKS=
<Peaks type="MS" xUnitsExpected="M/Z"  >
<PeakData id="1" title="molecular ion (~136)" peakShape="sharp" model="6lim.1"  xMax="137" xMin="135"    />
</Peaks>
##XUNITS= m/z
##YUNITS= relative abundance
##XFACTOR= 1
##YFACTOR= 1
##FIRSTX= 0
##LASTX= 137
##NPOINTS= 20
##FIRSTY= 0
##PEAK TABLE= (XY..XY)
0,0 41,326 51,102 53,275 65,109 66,121 67,1000 68,443 77,281 79,451
80,504 91,319 92,213 93,581 94,191 107,112 121,109 135,35 136,74 137,23
##END= $$ end of limonene
##TITLE= alpha-terpinene
##JCAMP-DX= 5  $$home made
##DATA TYPE= MASS SPECTRUM
##DATA CLASS= PEAK TABLE
##ORIGIN= UWI, Mona, JAMAICA
##OWNER= public domain
##$URL= http://wwwchem.uwimona.edu.jm/spectra
##SPECTROMETER/DATA SYSTEM= Finnigan
##INSTRUMENTAL PARAMETERS= LOW RESOLUTION
##.SPECTROMETER TYPE= TRAP
##.INLET= GC
##.IONIZATION MODE= EI+
##$MODELS=
<Models>
<ModelData id="terpinene" type="MOL">
alpha-terpinene
RLArgusLab          3D
http://wwwchem.uwimona.edu.jm
 26 26  0        0              1 V2000
    0.9560   -0.3920    0.3600 C   0  0  0  0  0  0  0  0  0  0  0  0
   -1.1400    1.5160    0.6120 C   0  0  0  0  0  0  0  0  0  0  0  0
    0.5720    3.3880    1.0240 C   0  0  0  0  0  0  0  0  0  0  0  0
   -1.4920    1.2600    1.6200 H   0  0  0  0  0  0  0  0  0  0  0  0
   -1.7560    2.3440    0.2280 H   0  0  0  0  0  0  0  0  0  0  0  0
    1.6440    3.5920    1.1920 H   0  0  0  0  0  0  0  0  0  0  0  0
    0.2360    4.0000    0.1720 H   0  0  0  0  0  0  0  0  0  0  0  0
    0.0200    3.6960    1.9240 H   0  0  0  0  0  0  0  0  0  0  0  0
    0.5000   -3.0280   -1.0440 C   0  0  0  0  0  0  0  0  0  0  0  0
    1.3320   -3.2160   -0.3520 H   0  0  0  0  0  0  0  0  0  0  0  0
    0.1120   -4.0040   -1.3760 H   0  0  0  0  0  0  0  0  0  0  0  0
    0.8840   -2.4920   -1.9280 H   0  0  0  0  0  0  0  0  0  0  0  0
    0.3040    1.9320    0.7400 C   0  0  0  0  0  0  0  0  0  0  0  0
    1.2760    1.0160    0.6280 C   0  0  0  0  0  0  0  0  0  0  0  0
    2.3240    1.2960    0.7400 H   0  0  0  0  0  0  0  0  0  0  0  0
   -0.6320   -2.2000   -0.3800 C   0  0  0  0  0  0  0  0  0  0  0  0
   -1.1120   -2.8720    0.9280 C   0  0  0  0  0  0  0  0  0  0  0  0
   -1.4520   -3.9040    0.7320 H   0  0  0  0  0  0  0  0  0  0  0  0
   -0.2920   -2.9080    1.6600 H   0  0  0  0  0  0  0  0  0  0  0  0
   -1.9520   -2.3080    1.3640 H   0  0  0  0  0  0  0  0  0  0  0  0
   -1.3040    0.2920   -0.3280 C   0  0  0  0  0  0  0  0  0  0  0  0
   -2.3200   -0.1120   -0.1840 H   0  0  0  0  0  0  0  0  0  0  0  0
   -0.2480   -0.7600   -0.0840 C   0  0  0  0  0  0  0  0  0  0  0  0
   -1.4680   -2.2000   -1.1000 H   0  0  0  0  0  0  0  0  0  0  0  0
   -1.2040    0.6120   -1.3760 H   0  0  0  0  0  0  0  0  0  0  0  0
    1.7520   -1.1120    0.5440 H   0  0  0  0  0  0  0  0  0  0  0  0
 21 25  1  0
 21 23  1  0
 21 22  1  0
 17 20  1  0
 17 19  1  0
 17 18  1  0
 16 24  1  0
 16 23  1  0
 16 17  1  0
 14 15  1  0
 13 14  2  0
  9 16  1  0
  9 12  1  0
  9 11  1  0
  9 10  1  0
  3 13  1  0
  3  8  1  0
  3  7  1  0
  3  6  1  0
  2 21  1  0
  2 13  1  0
  2  5  1  0
  2  4  1  0
  1 26  1  0
  1 23  2  0
  1 14  1  0
M  END
</ModelData>
<ModelData id="7terp" type="MOL" baseModel="terpinene" >
alpha-terpinene
RLArgusLab          3D
http://wwwchem.uwimona.edu.jm
 26 26  0        0              1 V2000
    0.9560   -0.3920    0.3600 C   0  0  0  0  0  0  0  0  0  0  0  0
   -1.1400    1.5160    0.6120 C   0  0  0  0  0  0  0  0  0  0  0  0
    0.5720    3.3880    1.0240 C   0  0  0  0  0  0  0  0  0  0  0  0
   -1.4920    1.2600    1.6200 H   0  0  0  0  0  0  0  0  0  0  0  0
   -1.7560    2.3440    0.2280 H   0  0  0  0  0  0  0  0  0  0  0  0
    1.6440    3.5920    1.1920 H   0  0  0  0  0  0  0  0  0  0  0  0
    0.2360    4.0000    0.1720 H   0  0  0  0  0  0  0  0  0  0  0  0
    0.0200    3.6960    1.9240 H   0  0  0  0  0  0  0  0  0  0  0  0
    0.5000   -3.0280   -1.0440 C   0  0  0  0  0  0  0  0  0  0  0  0
    1.3320   -3.2160   -0.3520 H   0  0  0  0  0  0  0  0  0  0  0  0
    0.1120   -4.0040   -1.3760 H   0  0  0  0  0  0  0  0  0  0  0  0
    0.8840   -2.4920   -1.9280 H   0  0  0  0  0  0  0  0  0  0  0  0
    0.3040    1.9320    0.7400 C   0  0  0  0  0  0  0  0  0  0  0  0
    1.2760    1.0160    0.6280 C   0  0  0  0  0  0  0  0  0  0  0  0
    2.3240    1.2960    0.7400 H   0  0  0  0  0  0  0  0  0  0  0  0
   -0.6320   -2.2000   -0.3800 C   0  0  0  0  0  0  0  0  0  0  0  0
   -1.1120   -2.8720    0.9280 C   0  0  0  0  0  0  0  0  0  0  0  0
   -1.4520   -3.9040    0.7320 H   0  0  0  0  0  0  0  0  0  0  0  0
   -0.2920   -2.9080    1.6600 H   0  0  0  0  0  0  0  0  0  0  0  0
   -1.9520   -2.3080    1.3640 H   0  0  0  0  0  0  0  0  0  0  0  0
   -1.3040    0.2920   -0.3280 C   0  0  0  0  0  0  0  0  0  0  0  0
   -2.3200   -0.1120   -0.1840 H   0  0  0  0  0  0  0  0  0  0  0  0
   -0.2480   -0.7600   -0.0840 C   0  0  0  0  0  0  0  0  0  0  0  0
   -1.4680   -2.2000   -1.1000 H   0  0  0  0  0  0  0  0  0  0  0  0
   -1.2040    0.6120   -1.3760 H   0  0  0  0  0  0  0  0  0  0  0  0
    1.7520   -1.1120    0.5440 H   0  0  0  0  0  0  0  0  0  0  0  0
 21 25  1  0
 21 23  1  0
 21 22  1  0
 17 20  1  0
 17 19  1  0
 17 18  1  0
 16 24  1  0
 16 23  1  0
 16 17  1  0
 14 15  1  0
 13 14  2  0
  9 16  1  0
  9 12  1  0
  9 11  1  0
  9 10  1  0
  3 13  1  0
  3  8  1  0
  3  7  1  0
  3  6  1  0
  2 21  1  0
  2 13  1  0
  2  5  1  0
  2  4  1  0
  1 26  1  0
  1 23  2  0
  1 14  1  0
M  END
</ModelData>
</Models>
##$PEAKS=
<Peaks type="MS" xUnitsExpected="M/Z"  >
<PeakData id="1" title="molecular ion (~136)" peakShape="sharp" model="7terp.1"  xMax="137" xMin="135"    />
</Peaks>
##XUNITS= m/z
##YUNITS= relative abundance
##XFACTOR= 1
##YFACTOR= 1
##FIRSTX= 0
##LASTX= 137
##NPOINTS= 50
##FIRSTY= 0
##PEAK TABLE= (XY..XY)
0.0,0  27.0,52  29.0,43 39.0,77  40.0,11 41.0,113  43.0,149  50.0, 10
51.0, 46  52.0, 21 53.0, 49  55.0, 59 57.5, 11 58.0, 19 59.0, 16
60.5, 10 63.0, 18 65.0, 56 66.0, 11 67.0, 47 68.0, 40 69.0, 20
71.0, 19 77.0, 241 78.0, 43 79.0, 226 80.0, 62 81.0, 42
91.0, 313 92.0, 113 93.0, 907 94.0, 93 95.0, 18 103.0, 28
104.0, 12  105.0, 163 106.0, 42 107.0, 119 108.0, 47
109.0, 11 111.0, 17 115.0, 18 117.0, 24 119.0, 177 120.0, 26
121.0, 1000 122.0, 101 134.0, 40 135.0, 13 136.0, 530
137.0,  60
##END= $$ end of alpha-terpinene
##TITLE= terpineol
##JCAMP-DX= 5 $$home made
##DATA TYPE= MASS SPECTRUM
##DATA CLASS= PEAK TABLE
##BLOCK ID= 9
##ORIGIN= UWI, Mona, JAMAICA
##OWNER= Robert Lancashire
##$URL= http://wwwchem.uwimona.edu.jm/spectra
##SPECTROMETER/DATA SYSTEM= Finnigan
##$MODELS=
<Models>
<ModelData id="terpineol" type="MOL">
alpha-terpineol
RL                  3D
 Structure written by MMmdl.
 29 29  0  0  1  0            999 V2000
    0.8567    0.1443    0.6790 C   0  0  0  0  0  0
   -0.2029   -0.7516   -0.0064 C   0  0  2  0  0  0
   -1.4571    0.0893   -0.3309 C   0  0  0  0  0  0
   -1.1340    1.2637   -1.2728 C   0  0  0  0  0  0
    0.3349    3.3542   -1.5371 C   0  0  0  0  0  0
   -1.9772    1.9554   -1.2903 H   0  0  0  0  0  0
   -1.0033    0.9009   -2.2929 H   0  0  0  0  0  0
   -1.8765    0.4873    0.5933 H   0  0  0  0  0  0
   -2.2379   -0.5263   -0.7786 H   0  0  0  0  0  0
    0.2249   -1.0473   -0.9661 H   0  0  0  0  0  0
    0.6048    0.3215    1.7239 H   0  0  0  0  0  0
    1.8288   -0.3483    0.6661 H   0  0  0  0  0  0
    1.2669    3.8212   -1.2171 H   0  0  0  0  0  0
    0.7497   -2.9131    1.0054 C   0  0  0  0  0  0
    0.3683    3.2376   -2.6206 H   0  0  0  0  0  0
   -0.4846    4.0294   -1.2895 H   0  0  0  0  0  0
    1.4361   -2.4290    1.7001 H   0  0  0  0  0  0
    0.4997   -3.8848    1.4338 H   0  0  0  0  0  0
    1.2922   -3.0925    0.0769 H   0  0  0  0  0  0
    0.1281    2.0100   -0.8706 C   0  0  0  0  0  0
    1.0088    1.4994    0.0094 C   0  0  0  0  0  0
    1.8864    2.0679    0.2826 H   0  0  0  0  0  0
   -0.5115   -2.0633    0.7762 C   0  0  0  0  0  0
   -1.3611   -2.8540   -0.0256 O   0  0  0  0  0  0
   -1.2583   -1.8408    2.1031 C   0  0  0  0  0  0
   -1.4692   -2.7902    2.5965 H   0  0  0  0  0  0
   -0.6782   -1.2379    2.8005 H   0  0  0  0  0  0
   -2.2173   -1.3457    1.9523 H   0  0  0  0  0  0
   -0.9672   -2.9567   -0.8785 H   0  0  0  0  0  0
  1  2  1  0  0  0
  1 11  1  0  0  0
  1 12  1  0  0  0
  1 21  1  0  0  0
  2  3  1  0  0  0
  2 10  1  0  0  0
  2 23  1  0  0  0
  3  4  1  0  0  0
  3  8  1  0  0  0
  3  9  1  0  0  0
  4  6  1  0  0  0
  4  7  1  0  0  0
  4 20  1  0  0  0
  5 13  1  0  0  0
  5 15  1  0  0  0
  5 16  1  0  0  0
  5 20  1  0  0  0
 14 17  1  0  0  0
 14 18  1  0  0  0
 14 19  1  0  0  0
 14 23  1  0  0  0
 20 21  2  0  0  0
 21 22  1  0  0  0
 23 24  1  0  0  0
 23 25  1  0  0  0
 24 29  1  0  0  0
 25 26  1  0  0  0
 25 27  1  0  0  0
 25 28  1  0  0  0
M  END
</ModelData>
<ModelData id="8terpol" type="MOL" baseModel="terpineol" >
alpha-terpineol
RL                  3D
 Structure written by MMmdl.
 29 29  0  0  1  0            999 V2000
    0.8567    0.1443    0.6790 C   0  0  0  0  0  0
   -0.2029   -0.7516   -0.0064 C   0  0  2  0  0  0
   -1.4571    0.0893   -0.3309 C   0  0  0  0  0  0
   -1.1340    1.2637   -1.2728 C   0  0  0  0  0  0
    0.3349    3.3542   -1.5371 C   0  0  0  0  0  0
   -1.9772    1.9554   -1.2903 H   0  0  0  0  0  0
   -1.0033    0.9009   -2.2929 H   0  0  0  0  0  0
   -1.8765    0.4873    0.5933 H   0  0  0  0  0  0
   -2.2379   -0.5263   -0.7786 H   0  0  0  0  0  0
    0.2249   -1.0473   -0.9661 H   0  0  0  0  0  0
    0.6048    0.3215    1.7239 H   0  0  0  0  0  0
    1.8288   -0.3483    0.6661 H   0  0  0  0  0  0
    1.2669    3.8212   -1.2171 H   0  0  0  0  0  0
    0.7497   -2.9131    1.0054 C   0  0  0  0  0  0
    0.3683    3.2376   -2.6206 H   0  0  0  0  0  0
   -0.4846    4.0294   -1.2895 H   0  0  0  0  0  0
    1.4361   -2.4290    1.7001 H   0  0  0  0  0  0
    0.4997   -3.8848    1.4338 H   0  0  0  0  0  0
    1.2922   -3.0925    0.0769 H   0  0  0  0  0  0
    0.1281    2.0100   -0.8706 C   0  0  0  0  0  0
    1.0088    1.4994    0.0094 C   0  0  0  0  0  0
    1.8864    2.0679    0.2826 H   0  0  0  0  0  0
   -0.5115   -2.0633    0.7762 C   0  0  0  0  0  0
   -1.3611   -2.8540   -0.0256 O   0  0  0  0  0  0
   -1.2583   -1.8408    2.1031 C   0  0  0  0  0  0
   -1.4692   -2.7902    2.5965 H   0  0  0  0  0  0
   -0.6782   -1.2379    2.8005 H   0  0  0  0  0  0
   -2.2173   -1.3457    1.9523 H   0  0  0  0  0  0
   -0.9672   -2.9567   -0.8785 H   0  0  0  0  0  0
  1  2  1  0  0  0
  1 11  1  0  0  0
  1 12  1  0  0  0
  1 21  1  0  0  0
  2  3  1  0  0  0
  2 10  1  0  0  0
  2 23  1  0  0  0
  3  4  1  0  0  0
  3  8  1  0  0  0
  3  9  1  0  0  0
  4  6  1  0  0  0
  4  7  1  0  0  0
  4 20  1  0  0  0
  5 13  1  0  0  0
  5 15  1  0  0  0
  5 16  1  0  0  0
  5 20  1  0  0  0
 14 17  1  0  0  0
 14 18  1  0  0  0
 14 19  1  0  0  0
 14 23  1  0  0  0
 20 21  2  0  0  0
 21 22  1  0  0  0
 23 24  1  0  0  0
 23 25  1  0  0  0
 24 29  1  0  0  0
 25 26  1  0  0  0
 25 27  1  0  0  0
 25 28  1  0  0  0
M  END
</ModelData>
</Models>
##$PEAKS=
<Peaks type="MS" xUnitsExpected="M/Z"  >
<PeakData id="1" title="molecular ion (~154)" peakShape="sharp" model="8terpol.1"  xMax="155" xMin="153"    />
</Peaks>
##INSTRUMENTAL PARAMETERS= LOW RESOLUTION
##.SPECTROMETER TYPE= TRAP
##.INLET= GC
##.IONIZATION MODE= EI+
##XUNITS= m/z
##YUNITS= relative abundance
##XFACTOR= 1
##YFACTOR= 1
##FIRSTX= 0
##LASTX= 154
##NPOINTS= 25
##FIRSTY= 0
##MAXY= 1000
##MINY= 0
##PEAK TABLE= (XY..XY)
0,0
41,723 42,144 43,1000 51,100 53,164 55,378 65,111 67,356 68,152 69,259 71,985
77,229 79,133 81,319 83,100 91,252 92,157 93,633 95,147 111,384 136,97 137,86
139,37 154,56
##END= $$ end of terpineol
##END= $$ end of file